#median_bin_length(cM)	mean_posterior_tmrca
2.025	100.34
2.075	99.09
2.125	97.79
2.175	96.43
2.225	95.03
2.275	93.59
2.325	92.13
2.375	90.64
2.425	89.13
2.475	87.62
2.525	86.1
2.575	84.57
2.625	83.06
2.675	81.55
2.725	80.05
2.775	78.56
2.825	77.09
2.875	75.64
2.925	74.21
2.975	72.8
3.025	71.41
3.075	70.05
3.125	68.72
3.175	67.41
3.225	66.13
3.275	64.88
3.325	63.66
3.375	62.47
3.425	61.3
3.475	60.17
3.525	59.06
3.575	57.98
3.625	56.93
3.675	55.9
3.725	54.91
3.775	53.94
3.825	53.0
3.875	52.08
3.925	51.19
3.975	50.32
4.025	49.48
4.075	48.66
4.125	47.86
4.175	47.09
4.225	46.34
4.275	45.6
4.325	44.89
4.375	44.2
4.425	43.53
4.475	42.87
4.525	42.24
4.575	41.62
4.625	41.02
4.675	40.43
4.725	39.86
4.775	39.3
4.825	38.76
4.875	38.24
4.925	37.73
4.975	37.23
5.025	36.74
5.075	36.27
5.125	35.8
5.175	35.35
5.225	34.92
5.275	34.49
5.325	34.07
5.375	33.66
5.425	33.26
5.475	32.87
5.525	32.49
5.575	32.12
5.625	31.76
5.675	31.41
5.725	31.06
5.775	30.72
5.825	30.39
5.875	30.07
5.925	29.75
5.975	29.44
6.025	29.14
6.075	28.84
6.125	28.55
6.175	28.27
6.225	27.99
6.275	27.72
6.325	27.45
6.375	27.19
6.425	26.93
6.475	26.68
6.525	26.43
6.575	26.19
6.625	25.95
6.675	25.72
6.725	25.49
6.775	25.26
6.825	25.04
6.875	24.82
6.925	24.61
6.975	24.4
7.025	24.2
7.075	23.99
7.125	23.79
7.175	23.6
7.225	23.41
7.275	23.22
7.325	23.03
7.375	22.85
7.425	22.67
7.475	22.49
7.525	22.32
7.575	22.15
7.625	21.98
7.675	21.81
7.725	21.65
7.775	21.49
7.825	21.33
7.875	21.18
7.925	21.02
7.975	20.87
8.025	20.72
8.075	20.58
8.125	20.43
8.175	20.29
8.225	20.15
8.275	20.01
8.325	19.87
8.375	19.74
8.425	19.61
8.475	19.47
8.525	19.35
8.575	19.22
8.625	19.09
8.675	18.97
8.725	18.85
8.775	18.72
8.825	18.61
8.875	18.49
8.925	18.37
8.975	18.26
9.025	18.14
9.075	18.03
9.125	17.92
9.175	17.81
9.225	17.71
9.275	17.6
9.325	17.49
9.375	17.39
9.425	17.29
9.475	17.19
9.525	17.09
9.575	16.99
9.625	16.89
9.675	16.79
9.725	16.7
9.775	16.6
9.825	16.51
9.875	16.42
9.925	16.33
9.975	16.24
10.025	16.15
10.075	16.06
10.125	15.97
10.175	15.89
10.225	15.8
10.275	15.72
10.325	15.63
10.375	15.55
10.425	15.47
10.475	15.39
10.525	15.31
10.575	15.23
10.625	15.15
10.675	15.07
10.725	15.0
10.775	14.92
10.825	14.85
10.875	14.77
10.925	14.7
10.975	14.63
11.025	14.55
11.075	14.48
11.125	14.41
11.175	14.34
11.225	14.27
11.275	14.2
11.325	14.14
11.375	14.07
11.425	14.0
11.475	13.94
11.525	13.87
11.575	13.81
11.625	13.74
11.675	13.68
11.725	13.61
11.775	13.55
11.825	13.49
11.875	13.43
11.925	13.37
11.975	13.31
12.025	13.25
12.075	13.19
12.125	13.13
12.175	13.07
12.225	13.02
12.275	12.96
12.325	12.9
12.375	12.85
12.425	12.79
12.475	12.74
12.525	12.68
12.575	12.63
12.625	12.57
12.675	12.52
12.725	12.47
12.775	12.42
12.825	12.37
12.875	12.31
12.925	12.26
12.975	12.21
13.025	12.16
13.075	12.11
13.125	12.06
13.175	12.01
13.225	11.97
13.275	11.92
13.325	11.87
13.375	11.82
13.425	11.78
13.475	11.73
13.525	11.68
13.575	11.64
13.625	11.59
13.675	11.55
13.725	11.5
13.775	11.46
13.825	11.41
13.875	11.37
13.925	11.33
13.975	11.28
14.025	11.24
14.075	11.2
14.125	11.16
14.175	11.12
14.225	11.07
14.275	11.03
14.325	10.99
14.375	10.95
14.425	10.91
14.475	10.87
14.525	10.83
14.575	10.79
14.625	10.75
14.675	10.72
14.725	10.68
14.775	10.64
14.825	10.6
14.875	10.56
14.925	10.53
14.975	10.49
15.025	10.45
15.075	10.42
15.125	10.38
15.175	10.34
15.225	10.31
15.275	10.27
15.325	10.24
15.375	10.2
15.425	10.17
15.475	10.13
15.525	10.1
15.575	10.06
15.625	10.03
15.675	10.0
15.725	9.96
15.775	9.93
15.825	9.9
15.875	9.86
15.925	9.83
15.975	9.8
16.025	9.77
16.075	9.74
16.125	9.7
16.175	9.67
16.225	9.64
16.275	9.61
16.325	9.58
16.375	9.55
16.425	9.52
16.475	9.49
16.525	9.46
16.575	9.43
16.625	9.4
16.675	9.37
16.725	9.34
16.775	9.31
16.825	9.28
16.875	9.25
16.925	9.22
16.975	9.19
17.025	9.17
17.075	9.14
17.125	9.11
17.175	9.08
17.225	9.06
17.275	9.03
17.325	9.0
17.375	8.97
17.425	8.95
17.475	8.92
17.525	8.89
17.575	8.87
17.625	8.84
17.675	8.81
17.725	8.79
17.775	8.76
17.825	8.74
17.875	8.71
17.925	8.69
17.975	8.66
18.025	8.64
18.075	8.61
18.125	8.59
18.175	8.56
18.225	8.54
18.275	8.51
18.325	8.49
18.375	8.46
18.425	8.44
18.475	8.42
18.525	8.39
18.575	8.37
18.625	8.35
18.675	8.32
18.725	8.3
18.775	8.28
18.825	8.25
18.875	8.23
18.925	8.21
18.975	8.19
19.025	8.16
19.075	8.14
19.125	8.12
19.175	8.1
19.225	8.08
19.275	8.05
19.325	8.03
19.375	8.01
19.425	7.99
19.475	7.97
19.525	7.95
19.575	7.93
19.625	7.9
19.675	7.88
19.725	7.86
19.775	7.84
19.825	7.82
19.875	7.8
19.925	7.78
19.975	7.76
20.025	7.74
20.075	7.72
20.125	7.7
20.175	7.68
20.225	7.66
20.275	7.64
20.325	7.62
20.375	7.6
20.425	7.58
20.475	7.56
20.525	7.55
20.575	7.53
20.625	7.51
20.675	7.49
20.725	7.47
20.775	7.45
20.825	7.43
20.875	7.41
20.925	7.4
20.975	7.38
21.025	7.36
21.075	7.34
21.125	7.32
21.175	7.31
21.225	7.29
21.275	7.27
21.325	7.25
21.375	7.24
21.425	7.22
21.475	7.2
21.525	7.18
21.575	7.17
21.625	7.15
21.675	7.13
21.725	7.11
21.775	7.1
21.825	7.08
21.875	7.06
21.925	7.05
21.975	7.03
22.075	7.0
22.125	6.98
22.175	6.97
22.225	6.95
22.275	6.93
22.325	6.92
22.375	6.9
22.425	6.89
22.475	6.87
22.525	6.85
22.575	6.84
22.625	6.82
22.675	6.81
22.725	6.79
22.775	6.78
22.825	6.76
22.875	6.75
22.925	6.73
22.975	6.72
23.025	6.7
23.075	6.69
23.125	6.67
23.225	6.64
23.275	6.63
23.325	6.61
23.375	6.6
23.425	6.58
23.475	6.57
23.525	6.55
23.575	6.54
23.625	6.53
23.675	6.51
23.725	6.5
23.775	6.48
23.825	6.47
23.875	6.46
23.925	6.44
23.975	6.43
24.075	6.4
24.125	6.39
24.175	6.37
24.225	6.36
24.275	6.35
24.325	6.33
24.375	6.32
24.525	6.28
24.575	6.27
24.625	6.25
24.675	6.24
24.725	6.23
24.775	6.21
24.825	6.2
24.875	6.19
24.925	6.18
24.975	6.16
25.025	6.15
25.075	6.14
25.125	6.13
25.225	6.1
25.275	6.09
25.325	6.08
25.475	6.04
25.525	6.03
25.675	5.99
25.725	5.98
25.775	5.97
25.825	5.95
25.875	5.94
25.975	5.92
26.025	5.91
26.125	5.88
26.225	5.86
26.275	5.85
26.425	5.82
26.475	5.81
26.525	5.79
26.575	5.78
26.675	5.76
26.725	5.75
26.775	5.74
26.825	5.73
26.875	5.72
26.975	5.69
27.025	5.68
27.075	5.67
27.125	5.66
27.175	5.65
27.225	5.64
27.275	5.63
27.325	5.62
27.375	5.61
27.425	5.6
27.575	5.57
27.625	5.56
27.675	5.55
27.725	5.54
27.775	5.53
27.825	5.52
27.875	5.51
27.925	5.5
27.975	5.49
28.025	5.48
28.075	5.47
28.125	5.46
28.175	5.45
28.225	5.44
28.275	5.43
28.325	5.42
28.425	5.4
28.475	5.39
28.525	5.38
28.575	5.37
28.675	5.35
28.825	5.32
28.875	5.31
28.925	5.3
29.075	5.27
29.125	5.27
29.275	5.24
29.375	5.22
29.425	5.21
29.475	5.2
29.525	5.19
29.575	5.18
29.625	5.17
29.675	5.17
29.725	5.16
29.775	5.15
29.825	5.14
29.975	5.11
30.025	5.1
30.075	5.1
30.125	5.09
30.175	5.08
30.275	5.06
30.325	5.05
30.375	5.04
30.525	5.02
30.575	5.01
30.625	5.0
30.675	4.99
30.725	4.99
30.775	4.98
30.825	4.97
30.875	4.96
30.975	4.94
31.025	4.94
31.075	4.93
31.125	4.92
31.275	4.9
31.375	4.88
31.475	4.86
31.525	4.86
31.625	4.84
31.675	4.83
31.725	4.83
31.775	4.82
31.825	4.81
31.875	4.8
31.925	4.79
32.275	4.74
32.325	4.73
32.425	4.72
32.475	4.71
32.625	4.69
32.675	4.68
32.825	4.66
32.925	4.65
32.975	4.64
33.025	4.63
33.075	4.63
33.125	4.62
33.175	4.61
33.225	4.6
33.275	4.6
33.375	4.58
33.425	4.58
33.475	4.57
33.525	4.56
33.625	4.55
33.775	4.53
33.875	4.51
34.075	4.49
34.175	4.47
34.225	4.47
34.325	4.45
34.425	4.44
34.575	4.42
34.675	4.41
34.825	4.39
34.875	4.38
34.925	4.38
34.975	4.37
35.025	4.36
35.075	4.36
35.125	4.35
35.275	4.33
35.325	4.33
35.375	4.32
35.425	4.31
35.475	4.31
35.575	4.3
35.625	4.29
35.675	4.28
35.725	4.28
35.775	4.27
36.025	4.24
36.125	4.23
36.325	4.21
36.625	4.17
36.725	4.16
36.925	4.14
36.975	4.13
37.175	4.11
37.325	4.09
37.375	4.09
37.425	4.08
37.475	4.08
37.525	4.07
37.575	4.06
37.625	4.06
37.675	4.05
37.725	4.05
37.825	4.04
37.925	4.03
38.025	4.02
38.075	4.01
38.125	4.0
38.175	4.0
38.225	3.99
38.275	3.99
38.375	3.98
38.425	3.97
38.525	3.96
38.575	3.96
38.625	3.95
38.775	3.94
38.825	3.93
38.875	3.93
38.975	3.92
39.025	3.91
39.125	3.9
39.175	3.9
39.225	3.89
39.375	3.88
39.425	3.87
39.475	3.87
39.625	3.85
39.725	3.84
39.775	3.84
39.925	3.82
39.975	3.82
40.025	3.81
40.175	3.8
40.225	3.79
40.325	3.78
40.375	3.78
40.425	3.77
40.475	3.77
40.625	3.76
40.675	3.75
40.725	3.75
40.775	3.74
40.825	3.74
40.925	3.73
41.025	3.72
41.075	3.71
41.125	3.71
41.175	3.71
41.625	3.67
41.675	3.66
41.725	3.66
41.925	3.64
42.075	3.63
42.125	3.62
42.225	3.61
42.325	3.6
42.575	3.58
42.825	3.56
43.175	3.53
43.225	3.53
43.725	3.49
44.025	3.46
44.225	3.45
44.325	3.44
44.425	3.43
44.675	3.41
44.975	3.39
45.025	3.39
45.125	3.38
45.325	3.36
45.375	3.36
45.425	3.36
45.525	3.35
45.625	3.34
46.425	3.29
46.475	3.28
46.525	3.28
46.725	3.26
46.825	3.26
46.925	3.25
47.025	3.24
47.125	3.24
47.175	3.23
47.375	3.22
47.625	3.2
47.675	3.2
47.925	3.18
47.975	3.18
48.025	3.18
48.075	3.17
48.125	3.17
48.175	3.17
48.725	3.13
48.775	3.13
48.825	3.12
48.875	3.12
48.925	3.12
48.975	3.11
49.775	3.06
49.875	3.06
49.925	3.06
50.025	3.05
50.275	3.03
50.925	3.0
51.325	2.97
51.475	2.96
51.625	2.96
51.775	2.95
51.925	2.94
52.075	2.93
52.175	2.92
52.475	2.91
52.525	2.91
52.575	2.9
52.825	2.89
52.925	2.88
52.975	2.88
53.075	2.88
53.475	2.85
54.025	2.83
54.225	2.82
54.875	2.78
55.325	2.76
55.525	2.75
55.625	2.75
55.775	2.74
57.425	2.66
57.575	2.65
57.675	2.65
59.525	2.57
59.675	2.56
59.775	2.56
60.225	2.54
60.275	2.54
60.625	2.52
60.825	2.52
61.025	2.51
61.275	2.5
62.225	2.46
62.875	2.44
62.925	2.43
63.075	2.43
63.675	2.41
63.875	2.4
64.775	2.37
65.675	2.34
66.025	2.32
66.575	2.3
68.675	2.24
69.075	2.23
69.275	2.22
71.225	2.16
72.625	2.12
73.675	2.09
74.225	2.08
75.175	2.05
76.825	2.01
78.075	1.98
79.425	1.95
81.425	1.91
81.575	1.91
82.625	1.88
83.575	1.86
84.375	1.85
85.275	1.83
87.325	1.79
87.375	1.79
90.425	1.74
90.775	1.73
92.525	1.7
93.975	1.68
94.525	1.67
94.875	1.67
97.275	1.63
98.825	1.61
115.925	1.42
119.625	1.39
122.125	1.37
154.725	1.19
