#median_bin_length(cM)	mean_posterior_tmrca
2.025	32.61
2.075	33.5
2.125	34.36
2.175	35.19
2.225	35.99
2.275	36.76
2.325	37.5
2.375	38.2
2.425	38.86
2.475	39.49
2.525	40.08
2.575	40.64
2.625	41.15
2.675	41.63
2.725	42.07
2.775	42.47
2.825	42.83
2.875	43.16
2.925	43.44
2.975	43.69
3.025	43.9
3.075	44.08
3.125	44.22
3.175	44.33
3.225	44.4
3.275	44.44
3.325	44.45
3.375	44.44
3.425	44.39
3.475	44.31
3.525	44.21
3.575	44.08
3.625	43.93
3.675	43.76
3.725	43.57
3.775	43.35
3.825	43.12
3.875	42.87
3.925	42.61
3.975	42.33
4.025	42.04
4.075	41.74
4.125	41.43
4.175	41.11
4.225	40.77
4.275	40.44
4.325	40.09
4.375	39.74
4.425	39.39
4.475	39.03
4.525	38.67
4.575	38.3
4.625	37.94
4.675	37.57
4.725	37.2
4.775	36.83
4.825	36.47
4.875	36.1
4.925	35.74
4.975	35.38
5.025	35.02
5.075	34.66
5.125	34.31
5.175	33.96
5.225	33.61
5.275	33.27
5.325	32.93
5.375	32.59
5.425	32.26
5.475	31.93
5.525	31.61
5.575	31.29
5.625	30.98
5.675	30.67
5.725	30.36
5.775	30.06
5.825	29.77
5.875	29.48
5.925	29.19
5.975	28.91
6.025	28.63
6.075	28.35
6.125	28.08
6.175	27.82
6.225	27.56
6.275	27.3
6.325	27.05
6.375	26.8
6.425	26.56
6.475	26.32
6.525	26.08
6.575	25.85
6.625	25.62
6.675	25.4
6.725	25.18
6.775	24.96
6.825	24.75
6.875	24.54
6.925	24.33
6.975	24.13
7.025	23.93
7.075	23.74
7.125	23.54
7.175	23.35
7.225	23.17
7.275	22.98
7.325	22.8
7.375	22.62
7.425	22.45
7.475	22.27
7.525	22.1
7.575	21.94
7.625	21.77
7.675	21.61
7.725	21.45
7.775	21.29
7.825	21.14
7.875	20.98
7.925	20.83
7.975	20.68
8.025	20.54
8.075	20.39
8.125	20.25
8.175	20.11
8.225	19.97
8.275	19.84
8.325	19.7
8.375	19.57
8.425	19.44
8.475	19.31
8.525	19.19
8.575	19.06
8.625	18.94
8.675	18.81
8.725	18.69
8.775	18.57
8.825	18.46
8.875	18.34
8.925	18.23
8.975	18.11
9.025	18.0
9.075	17.89
9.125	17.78
9.175	17.68
9.225	17.57
9.275	17.47
9.325	17.36
9.375	17.26
9.425	17.16
9.475	17.06
9.525	16.96
9.575	16.86
9.625	16.77
9.675	16.67
9.725	16.58
9.775	16.49
9.825	16.39
9.875	16.3
9.925	16.21
9.975	16.13
10.025	16.04
10.075	15.95
10.125	15.86
10.175	15.78
10.225	15.7
10.275	15.61
10.325	15.53
10.375	15.45
10.425	15.37
10.475	15.29
10.525	15.21
10.575	15.13
10.625	15.06
10.675	14.98
10.725	14.9
10.775	14.83
10.825	14.75
10.875	14.68
10.925	14.61
10.975	14.54
11.025	14.47
11.075	14.4
11.125	14.33
11.175	14.26
11.225	14.19
11.275	14.12
11.325	14.05
11.375	13.99
11.425	13.92
11.475	13.86
11.525	13.79
11.575	13.73
11.625	13.66
11.675	13.6
11.725	13.54
11.775	13.48
11.825	13.42
11.875	13.36
11.925	13.3
11.975	13.24
12.025	13.18
12.075	13.12
12.125	13.06
12.175	13.01
12.225	12.95
12.275	12.89
12.325	12.84
12.375	12.78
12.425	12.73
12.475	12.67
12.525	12.62
12.575	12.57
12.625	12.51
12.675	12.46
12.725	12.41
12.775	12.36
12.825	12.31
12.875	12.25
12.925	12.2
12.975	12.15
13.025	12.1
13.075	12.06
13.125	12.01
13.175	11.96
13.225	11.91
13.275	11.86
13.325	11.82
13.375	11.77
13.425	11.72
13.475	11.68
13.525	11.63
13.575	11.59
13.625	11.54
13.675	11.5
13.725	11.45
13.775	11.41
13.825	11.36
13.875	11.32
13.925	11.28
13.975	11.24
14.025	11.19
14.075	11.15
14.125	11.11
14.175	11.07
14.225	11.03
14.275	10.99
14.325	10.95
14.375	10.91
14.425	10.87
14.475	10.83
14.525	10.79
14.575	10.75
14.625	10.71
14.675	10.67
14.725	10.63
14.775	10.6
14.825	10.56
14.875	10.52
14.925	10.48
14.975	10.45
15.025	10.41
15.075	10.38
15.125	10.34
15.175	10.3
15.225	10.27
15.275	10.23
15.325	10.2
15.375	10.16
15.425	10.13
15.475	10.09
15.525	10.06
15.575	10.03
15.625	9.99
15.675	9.96
15.725	9.93
15.775	9.89
15.825	9.86
15.875	9.83
15.925	9.8
15.975	9.76
16.025	9.73
16.075	9.7
16.125	9.67
16.175	9.64
16.225	9.61
16.275	9.58
16.325	9.55
16.375	9.51
16.425	9.48
16.475	9.45
16.525	9.42
16.575	9.4
16.625	9.37
16.675	9.34
16.725	9.31
16.775	9.28
16.825	9.25
16.875	9.22
16.925	9.19
16.975	9.16
17.025	9.14
17.075	9.11
17.125	9.08
17.175	9.05
17.225	9.03
17.275	9.0
17.325	8.97
17.375	8.94
17.425	8.92
17.475	8.89
17.525	8.87
17.575	8.84
17.625	8.81
17.675	8.79
17.725	8.76
17.775	8.74
17.825	8.71
17.875	8.68
17.925	8.66
17.975	8.63
18.025	8.61
18.075	8.59
18.125	8.56
18.175	8.54
18.225	8.51
18.275	8.49
18.325	8.46
18.375	8.44
18.425	8.42
18.475	8.39
18.525	8.37
18.575	8.35
18.625	8.32
18.675	8.3
18.725	8.28
18.775	8.25
18.825	8.23
18.875	8.21
18.925	8.19
18.975	8.16
19.025	8.14
19.075	8.12
19.125	8.1
19.175	8.07
19.225	8.05
19.275	8.03
19.325	8.01
19.375	7.99
19.425	7.97
19.475	7.95
19.525	7.93
19.575	7.9
19.625	7.88
19.675	7.86
19.725	7.84
19.775	7.82
19.825	7.8
19.875	7.78
19.925	7.76
19.975	7.74
20.025	7.72
20.075	7.7
20.125	7.68
20.175	7.66
20.225	7.64
20.275	7.62
20.325	7.6
20.375	7.58
20.425	7.56
20.475	7.55
20.525	7.53
20.575	7.51
20.625	7.49
20.675	7.47
20.725	7.45
20.775	7.43
20.825	7.41
20.875	7.4
20.925	7.38
20.975	7.36
21.025	7.34
21.075	7.32
21.125	7.31
21.175	7.29
21.225	7.27
21.275	7.25
21.325	7.24
21.375	7.22
21.425	7.2
21.475	7.18
21.525	7.17
21.575	7.15
21.625	7.13
21.675	7.11
21.725	7.1
21.775	7.08
21.825	7.06
21.875	7.05
21.925	7.03
21.975	7.01
22.075	6.98
22.125	6.97
22.175	6.95
22.225	6.93
22.275	6.92
22.325	6.9
22.375	6.89
22.425	6.87
22.475	6.85
22.525	6.84
22.575	6.82
22.625	6.81
22.675	6.79
22.725	6.78
22.775	6.76
22.825	6.75
22.875	6.73
22.925	6.72
22.975	6.7
23.025	6.69
23.075	6.67
23.125	6.66
23.225	6.63
23.275	6.61
23.325	6.6
23.375	6.58
23.425	6.57
23.475	6.55
23.525	6.54
23.575	6.53
23.625	6.51
23.675	6.5
23.725	6.48
23.775	6.47
23.825	6.46
23.875	6.44
23.925	6.43
23.975	6.41
24.075	6.39
24.125	6.37
24.175	6.36
24.225	6.35
24.275	6.33
24.325	6.32
24.375	6.31
24.525	6.27
24.575	6.25
24.625	6.24
24.675	6.23
24.725	6.21
24.775	6.2
24.825	6.19
24.875	6.18
24.925	6.16
24.975	6.15
25.025	6.14
25.075	6.13
25.125	6.11
25.225	6.09
25.275	6.08
25.325	6.06
25.475	6.03
25.525	6.02
25.675	5.98
25.725	5.97
25.775	5.96
25.825	5.94
25.875	5.93
25.975	5.91
26.025	5.9
26.125	5.87
26.225	5.85
26.275	5.84
26.425	5.81
26.475	5.79
26.525	5.78
26.575	5.77
26.675	5.75
26.725	5.74
26.775	5.73
26.825	5.72
26.875	5.71
26.975	5.68
27.025	5.67
27.075	5.66
27.125	5.65
27.175	5.64
27.225	5.63
27.275	5.62
27.325	5.61
27.375	5.6
27.425	5.59
27.575	5.56
27.625	5.55
27.675	5.54
27.725	5.53
27.775	5.52
27.825	5.51
27.875	5.5
27.925	5.49
27.975	5.48
28.025	5.47
28.075	5.46
28.125	5.45
28.175	5.44
28.225	5.43
28.275	5.42
28.325	5.41
28.425	5.39
28.475	5.38
28.525	5.37
28.575	5.36
28.675	5.34
28.825	5.31
28.875	5.3
28.925	5.29
29.075	5.27
29.125	5.26
29.275	5.23
29.375	5.21
29.425	5.2
29.475	5.19
29.525	5.18
29.575	5.18
29.625	5.17
29.675	5.16
29.725	5.15
29.775	5.14
29.825	5.13
29.975	5.1
30.025	5.1
30.075	5.09
30.125	5.08
30.175	5.07
30.275	5.05
30.325	5.04
30.375	5.04
30.525	5.01
30.575	5.0
30.625	4.99
30.675	4.99
30.725	4.98
30.775	4.97
30.825	4.96
30.875	4.95
30.975	4.94
31.025	4.93
31.075	4.92
31.125	4.91
31.275	4.89
31.375	4.87
31.475	4.86
31.525	4.85
31.625	4.83
31.675	4.83
31.725	4.82
31.775	4.81
31.825	4.8
31.875	4.8
31.925	4.79
32.275	4.73
32.325	4.73
32.425	4.71
32.475	4.71
32.625	4.68
32.675	4.68
32.825	4.65
32.925	4.64
32.975	4.63
33.025	4.63
33.075	4.62
33.125	4.61
33.175	4.6
33.225	4.6
33.275	4.59
33.375	4.58
33.425	4.57
33.475	4.56
33.525	4.56
33.625	4.54
33.775	4.52
33.875	4.51
34.075	4.48
34.175	4.47
34.225	4.46
34.325	4.45
34.425	4.44
34.575	4.42
34.675	4.4
34.825	4.38
34.875	4.38
34.925	4.37
34.975	4.36
35.025	4.36
35.075	4.35
35.125	4.35
35.275	4.33
35.325	4.32
35.375	4.31
35.425	4.31
35.475	4.3
35.575	4.29
35.625	4.28
35.675	4.28
35.725	4.27
35.775	4.27
36.025	4.24
36.125	4.22
36.325	4.2
36.625	4.17
36.725	4.15
36.925	4.13
36.975	4.13
37.175	4.1
37.325	4.09
37.375	4.08
37.425	4.08
37.475	4.07
37.525	4.06
37.575	4.06
37.625	4.05
37.675	4.05
37.725	4.04
37.825	4.03
37.925	4.02
38.025	4.01
38.075	4.01
38.125	4.0
38.175	3.99
38.225	3.99
38.275	3.98
38.375	3.97
38.425	3.97
38.525	3.96
38.575	3.95
38.625	3.95
38.775	3.93
38.825	3.93
38.875	3.92
38.975	3.91
39.025	3.91
39.125	3.9
39.175	3.89
39.225	3.89
39.375	3.87
39.425	3.87
39.475	3.86
39.625	3.85
39.725	3.84
39.775	3.83
39.925	3.82
39.975	3.81
40.025	3.81
40.175	3.79
40.225	3.79
40.325	3.78
40.375	3.78
40.425	3.77
40.475	3.77
40.625	3.75
40.675	3.75
40.725	3.74
40.775	3.74
40.825	3.73
40.925	3.72
41.025	3.72
41.075	3.71
41.125	3.71
41.175	3.7
41.625	3.66
41.675	3.66
41.725	3.65
41.925	3.63
42.075	3.62
42.125	3.62
42.225	3.61
42.325	3.6
42.575	3.58
42.825	3.56
43.175	3.53
43.225	3.53
43.725	3.48
44.025	3.46
44.225	3.45
44.325	3.44
44.425	3.43
44.675	3.41
44.975	3.39
45.025	3.38
45.125	3.38
45.325	3.36
45.375	3.36
45.425	3.35
45.525	3.35
45.625	3.34
46.425	3.28
46.475	3.28
46.525	3.27
46.725	3.26
46.825	3.25
46.925	3.25
47.025	3.24
47.125	3.23
47.175	3.23
47.375	3.22
47.625	3.2
47.675	3.2
47.925	3.18
47.975	3.18
48.025	3.17
48.075	3.17
48.125	3.17
48.175	3.16
48.725	3.13
48.775	3.12
48.825	3.12
48.875	3.12
48.925	3.11
48.975	3.11
49.775	3.06
49.875	3.06
49.925	3.05
50.025	3.05
50.275	3.03
50.925	2.99
51.325	2.97
51.475	2.96
51.625	2.95
51.775	2.94
51.925	2.94
52.075	2.93
52.175	2.92
52.475	2.91
52.525	2.9
52.575	2.9
52.825	2.89
52.925	2.88
52.975	2.88
53.075	2.87
53.475	2.85
54.025	2.82
54.225	2.81
54.875	2.78
55.325	2.76
55.525	2.75
55.625	2.74
55.775	2.74
57.425	2.66
57.575	2.65
57.675	2.65
59.525	2.57
59.675	2.56
59.775	2.56
60.225	2.54
60.275	2.54
60.625	2.52
60.825	2.51
61.025	2.51
61.275	2.5
62.225	2.46
62.875	2.43
62.925	2.43
63.075	2.43
63.675	2.4
63.875	2.4
64.775	2.36
65.675	2.33
66.025	2.32
66.575	2.3
68.675	2.24
69.075	2.22
69.275	2.22
71.225	2.16
72.625	2.12
73.675	2.09
74.225	2.08
75.175	2.05
76.825	2.01
78.075	1.98
79.425	1.95
81.425	1.91
81.575	1.9
82.625	1.88
83.575	1.86
84.375	1.85
85.275	1.83
87.325	1.79
87.375	1.79
90.425	1.74
90.775	1.73
92.525	1.7
93.975	1.68
94.525	1.67
94.875	1.67
97.275	1.63
98.825	1.61
115.925	1.42
119.625	1.39
122.125	1.37
154.725	1.19
