#median_bin_length(cM)	mean_posterior_tmrca
2.025	56.16
2.075	56.25
2.125	56.32
2.175	56.35
2.225	56.35
2.275	56.32
2.325	56.27
2.375	56.19
2.425	56.09
2.475	55.97
2.525	55.82
2.575	55.66
2.625	55.49
2.675	55.29
2.725	55.09
2.775	54.86
2.825	54.63
2.875	54.38
2.925	54.12
2.975	53.85
3.025	53.57
3.075	53.28
3.125	52.98
3.175	52.67
3.225	52.36
3.275	52.04
3.325	51.71
3.375	51.38
3.425	51.04
3.475	50.69
3.525	50.34
3.575	49.99
3.625	49.63
3.675	49.27
3.725	48.9
3.775	48.53
3.825	48.16
3.875	47.79
3.925	47.42
3.975	47.04
4.025	46.66
4.075	46.28
4.125	45.9
4.175	45.52
4.225	45.14
4.275	44.76
4.325	44.38
4.375	44.0
4.425	43.62
4.475	43.24
4.525	42.86
4.575	42.49
4.625	42.11
4.675	41.74
4.725	41.37
4.775	41.0
4.825	40.63
4.875	40.26
4.925	39.9
4.975	39.54
5.025	39.18
5.075	38.82
5.125	38.47
5.175	38.11
5.225	37.77
5.275	37.42
5.325	37.08
5.375	36.74
5.425	36.41
5.475	36.07
5.525	35.75
5.575	35.42
5.625	35.1
5.675	34.78
5.725	34.47
5.775	34.16
5.825	33.85
5.875	33.55
5.925	33.25
5.975	32.95
6.025	32.66
6.075	32.37
6.125	32.09
6.175	31.81
6.225	31.53
6.275	31.26
6.325	30.99
6.375	30.73
6.425	30.46
6.475	30.21
6.525	29.95
6.575	29.7
6.625	29.46
6.675	29.22
6.725	28.98
6.775	28.74
6.825	28.51
6.875	28.28
6.925	28.06
6.975	27.84
7.025	27.62
7.075	27.41
7.125	27.2
7.175	26.99
7.225	26.79
7.275	26.59
7.325	26.39
7.375	26.2
7.425	26.01
7.475	25.82
7.525	25.64
7.575	25.46
7.625	25.28
7.675	25.1
7.725	24.93
7.775	24.76
7.825	24.6
7.875	24.43
7.925	24.27
7.975	24.11
8.025	23.96
8.075	23.8
8.125	23.65
8.175	23.5
8.225	23.36
8.275	23.21
8.325	23.07
8.375	22.93
8.425	22.8
8.475	22.66
8.525	22.53
8.575	22.4
8.625	22.27
8.675	22.15
8.725	22.02
8.775	21.9
8.825	21.78
8.875	21.66
8.925	21.55
8.975	21.43
9.025	21.32
9.075	21.21
9.125	21.1
9.175	20.99
9.225	20.88
9.275	20.78
9.325	20.67
9.375	20.57
9.425	20.47
9.475	20.37
9.525	20.28
9.575	20.18
9.625	20.08
9.675	19.99
9.725	19.9
9.775	19.81
9.825	19.72
9.875	19.63
9.925	19.54
9.975	19.46
10.025	19.37
10.075	19.29
10.125	19.21
10.175	19.12
10.225	19.04
10.275	18.96
10.325	18.88
10.375	18.81
10.425	18.73
10.475	18.65
10.525	18.58
10.575	18.5
10.625	18.43
10.675	18.36
10.725	18.29
10.775	18.22
10.825	18.15
10.875	18.08
10.925	18.01
10.975	17.94
11.025	17.87
11.075	17.81
11.125	17.74
11.175	17.68
11.225	17.61
11.275	17.55
11.325	17.49
11.375	17.42
11.425	17.36
11.475	17.3
11.525	17.24
11.575	17.18
11.625	17.12
11.675	17.06
11.725	17.0
11.775	16.95
11.825	16.89
11.875	16.83
11.925	16.77
11.975	16.72
12.025	16.66
12.075	16.61
12.125	16.55
12.175	16.5
12.225	16.44
12.275	16.39
12.325	16.34
12.375	16.29
12.425	16.23
12.475	16.18
12.525	16.13
12.575	16.08
12.625	16.03
12.675	15.98
12.725	15.93
12.775	15.88
12.825	15.83
12.875	15.78
12.925	15.73
12.975	15.68
13.025	15.64
13.075	15.59
13.125	15.54
13.175	15.49
13.225	15.45
13.275	15.4
13.325	15.35
13.375	15.31
13.425	15.26
13.475	15.22
13.525	15.17
13.575	15.13
13.625	15.08
13.675	15.04
13.725	14.99
13.775	14.95
13.825	14.9
13.875	14.86
13.925	14.82
13.975	14.77
14.025	14.73
14.075	14.69
14.125	14.65
14.175	14.6
14.225	14.56
14.275	14.52
14.325	14.48
14.375	14.44
14.425	14.4
14.475	14.35
14.525	14.31
14.575	14.27
14.625	14.23
14.675	14.19
14.725	14.15
14.775	14.11
14.825	14.07
14.875	14.03
14.925	13.99
14.975	13.95
15.025	13.91
15.075	13.87
15.125	13.84
15.175	13.8
15.225	13.76
15.275	13.72
15.325	13.68
15.375	13.64
15.425	13.6
15.475	13.57
15.525	13.53
15.575	13.49
15.625	13.45
15.675	13.42
15.725	13.38
15.775	13.34
15.825	13.31
15.875	13.27
15.925	13.23
15.975	13.2
16.025	13.16
16.075	13.12
16.125	13.09
16.175	13.05
16.225	13.01
16.275	12.98
16.325	12.94
16.375	12.91
16.425	12.87
16.475	12.84
16.525	12.8
16.575	12.77
16.625	12.73
16.675	12.7
16.725	12.66
16.775	12.63
16.825	12.59
16.875	12.56
16.925	12.52
16.975	12.49
17.025	12.46
17.075	12.42
17.125	12.39
17.175	12.35
17.225	12.32
17.275	12.29
17.325	12.25
17.375	12.22
17.425	12.19
17.475	12.15
17.525	12.12
17.575	12.09
17.625	12.05
17.675	12.02
17.725	11.99
17.775	11.96
17.825	11.92
17.875	11.89
17.925	11.86
17.975	11.83
18.025	11.79
18.075	11.76
18.125	11.73
18.175	11.7
18.225	11.67
18.275	11.63
18.325	11.6
18.375	11.57
18.425	11.54
18.475	11.51
18.525	11.48
18.575	11.45
18.625	11.42
18.675	11.38
18.725	11.35
18.775	11.32
18.825	11.29
18.875	11.26
18.925	11.23
18.975	11.2
19.025	11.17
19.075	11.14
19.125	11.11
19.175	11.08
19.225	11.05
19.275	11.02
19.325	10.99
19.375	10.96
19.425	10.93
19.475	10.9
19.525	10.87
19.575	10.84
19.625	10.81
19.675	10.79
19.725	10.76
19.775	10.73
19.825	10.7
19.875	10.67
19.925	10.64
19.975	10.61
20.025	10.58
20.075	10.56
20.125	10.53
20.175	10.5
20.225	10.47
20.275	10.44
20.325	10.41
20.375	10.39
20.425	10.36
20.475	10.33
20.525	10.3
20.575	10.28
20.625	10.25
20.675	10.22
20.725	10.19
20.775	10.17
20.825	10.14
20.875	10.11
20.925	10.08
20.975	10.06
21.025	10.03
21.075	10.0
21.125	9.98
21.175	9.95
21.225	9.92
21.275	9.9
21.325	9.87
21.375	9.84
21.425	9.82
21.475	9.79
21.525	9.77
21.575	9.74
21.625	9.71
21.675	9.69
21.725	9.66
21.775	9.64
21.825	9.61
21.875	9.59
21.925	9.56
21.975	9.54
22.025	9.51
22.075	9.49
22.125	9.46
22.175	9.44
22.225	9.41
22.275	9.39
22.325	9.36
22.375	9.34
22.425	9.31
22.475	9.29
22.525	9.26
22.575	9.24
22.625	9.21
22.675	9.19
22.725	9.17
22.775	9.14
22.825	9.12
22.875	9.09
22.925	9.07
22.975	9.05
23.025	9.02
23.075	9.0
23.125	8.98
23.175	8.95
23.225	8.93
23.275	8.91
23.325	8.88
23.375	8.86
23.425	8.84
23.475	8.81
23.525	8.79
23.575	8.77
23.625	8.75
23.675	8.72
23.725	8.7
23.775	8.68
23.825	8.66
23.875	8.63
23.925	8.61
23.975	8.59
24.025	8.57
24.075	8.55
24.125	8.52
24.175	8.5
24.225	8.48
24.275	8.46
24.325	8.44
24.375	8.42
24.425	8.39
24.475	8.37
24.525	8.35
24.575	8.33
24.625	8.31
24.675	8.29
24.725	8.27
24.775	8.25
24.825	8.23
24.875	8.2
24.925	8.18
24.975	8.16
25.025	8.14
25.075	8.12
25.125	8.1
25.175	8.08
25.225	8.06
25.275	8.04
25.325	8.02
25.375	8.0
25.425	7.98
25.475	7.96
25.525	7.94
25.575	7.92
25.625	7.9
25.675	7.88
25.725	7.86
25.775	7.84
25.825	7.82
25.875	7.8
25.925	7.78
25.975	7.77
26.025	7.75
26.075	7.73
26.125	7.71
26.175	7.69
26.225	7.67
26.275	7.65
26.325	7.63
26.375	7.61
26.425	7.6
26.475	7.58
26.525	7.56
26.575	7.54
26.625	7.52
26.675	7.5
26.725	7.49
26.775	7.47
26.825	7.45
26.875	7.43
26.925	7.41
26.975	7.4
27.025	7.38
27.075	7.36
27.125	7.34
27.175	7.33
27.225	7.31
27.275	7.29
27.325	7.27
27.375	7.26
27.425	7.24
27.475	7.22
27.525	7.2
27.575	7.19
27.625	7.17
27.675	7.15
27.725	7.14
27.775	7.12
27.825	7.1
27.875	7.09
27.925	7.07
27.975	7.05
28.025	7.04
28.075	7.02
28.125	7.0
28.175	6.99
28.225	6.97
28.275	6.96
28.325	6.94
28.375	6.92
28.425	6.91
28.475	6.89
28.525	6.88
28.575	6.86
28.625	6.84
28.675	6.83
28.725	6.81
28.775	6.8
28.825	6.78
28.875	6.77
28.925	6.75
28.975	6.74
29.025	6.72
29.075	6.7
29.125	6.69
29.175	6.67
29.225	6.66
29.275	6.64
29.325	6.63
29.375	6.61
29.425	6.6
29.475	6.58
29.525	6.57
29.575	6.56
29.625	6.54
29.675	6.53
29.725	6.51
29.775	6.5
29.825	6.48
29.875	6.47
29.925	6.45
29.975	6.44
30.025	6.43
30.075	6.41
30.125	6.4
30.175	6.38
30.225	6.37
30.275	6.36
30.325	6.34
30.375	6.33
30.425	6.31
30.475	6.3
30.525	6.29
30.575	6.27
30.625	6.26
30.675	6.25
30.725	6.23
30.775	6.22
30.825	6.21
30.875	6.19
30.925	6.18
30.975	6.17
31.025	6.15
31.075	6.14
31.125	6.13
31.175	6.11
31.225	6.1
31.275	6.09
31.325	6.08
31.375	6.06
31.425	6.05
31.475	6.04
31.525	6.03
31.575	6.01
31.625	6.0
31.675	5.99
31.725	5.98
31.775	5.96
31.825	5.95
31.875	5.94
31.925	5.93
31.975	5.91
32.025	5.9
32.075	5.89
32.125	5.88
32.175	5.87
32.225	5.85
32.275	5.84
32.325	5.83
32.375	5.82
32.425	5.81
32.475	5.79
32.525	5.78
32.575	5.77
32.625	5.76
32.675	5.75
32.725	5.74
32.775	5.72
32.825	5.71
32.875	5.7
32.925	5.69
32.975	5.68
33.025	5.67
33.075	5.66
33.125	5.64
33.175	5.63
33.225	5.62
33.275	5.61
33.325	5.6
33.375	5.59
33.425	5.58
33.475	5.57
33.525	5.56
33.575	5.55
33.625	5.53
33.675	5.52
33.725	5.51
33.775	5.5
33.825	5.49
33.875	5.48
33.925	5.47
33.975	5.46
34.025	5.45
34.075	5.44
34.125	5.43
34.175	5.42
34.225	5.41
34.275	5.4
34.325	5.39
34.375	5.38
34.425	5.37
34.475	5.36
34.525	5.35
34.575	5.34
34.625	5.33
34.675	5.32
34.725	5.31
34.775	5.3
34.825	5.29
34.875	5.28
34.925	5.27
34.975	5.26
35.025	5.25
35.075	5.24
35.125	5.23
35.175	5.22
35.225	5.21
35.275	5.2
35.325	5.19
35.375	5.18
35.425	5.17
35.475	5.16
35.525	5.15
35.575	5.14
35.625	5.13
35.675	5.12
35.725	5.11
35.775	5.11
35.825	5.1
35.875	5.09
35.925	5.08
35.975	5.07
36.025	5.06
36.075	5.05
36.125	5.04
36.175	5.03
36.225	5.02
36.275	5.01
36.325	5.01
36.375	5.0
36.425	4.99
36.475	4.98
36.525	4.97
36.575	4.96
36.625	4.95
36.675	4.94
36.725	4.94
36.775	4.93
36.825	4.92
36.875	4.91
36.925	4.9
36.975	4.89
37.025	4.88
37.075	4.88
37.125	4.87
37.175	4.86
37.225	4.85
37.275	4.84
37.325	4.83
37.375	4.83
37.425	4.82
37.475	4.81
37.525	4.8
37.575	4.79
37.625	4.79
37.675	4.78
37.725	4.77
37.775	4.76
37.825	4.75
37.875	4.75
37.925	4.74
37.975	4.73
38.025	4.72
38.075	4.71
38.125	4.71
38.175	4.7
38.225	4.69
38.275	4.68
38.325	4.67
38.375	4.67
38.425	4.66
38.475	4.65
38.525	4.64
38.575	4.64
38.625	4.63
38.675	4.62
38.725	4.61
38.775	4.61
38.825	4.6
38.875	4.59
38.925	4.58
38.975	4.58
39.025	4.57
39.075	4.56
39.125	4.55
39.175	4.55
39.225	4.54
39.275	4.53
39.325	4.52
39.375	4.52
39.425	4.51
39.475	4.5
39.525	4.5
39.575	4.49
39.625	4.48
39.675	4.47
39.725	4.47
39.775	4.46
39.825	4.45
39.875	4.45
39.925	4.44
39.975	4.43
40.025	4.43
40.075	4.42
40.125	4.41
40.175	4.4
40.225	4.4
40.275	4.39
40.325	4.38
40.375	4.38
40.425	4.37
40.475	4.36
40.525	4.36
40.575	4.35
40.625	4.34
40.675	4.34
40.725	4.33
40.775	4.32
40.825	4.32
40.875	4.31
40.925	4.3
40.975	4.3
41.025	4.29
41.075	4.28
41.125	4.28
41.175	4.27
41.225	4.27
41.275	4.26
41.325	4.25
41.375	4.25
41.425	4.24
41.475	4.23
41.525	4.23
41.575	4.22
41.625	4.21
41.675	4.21
41.725	4.2
41.775	4.2
41.825	4.19
41.875	4.18
41.925	4.18
42.025	4.17
42.075	4.16
42.125	4.15
42.175	4.15
42.225	4.14
42.275	4.14
42.325	4.13
42.375	4.12
42.425	4.12
42.475	4.11
42.525	4.11
42.575	4.1
42.625	4.09
42.675	4.09
42.725	4.08
42.775	4.08
42.825	4.07
42.875	4.06
42.925	4.06
42.975	4.05
43.025	4.05
43.075	4.04
43.125	4.04
43.175	4.03
43.225	4.02
43.275	4.02
43.325	4.01
43.375	4.01
43.425	4.0
43.475	4.0
43.525	3.99
43.575	3.98
43.675	3.97
43.725	3.97
43.775	3.96
43.825	3.96
43.875	3.95
43.925	3.95
43.975	3.94
44.025	3.94
44.075	3.93
44.125	3.92
44.175	3.92
44.225	3.91
44.275	3.91
44.325	3.9
44.375	3.9
44.425	3.89
44.475	3.89
44.525	3.88
44.575	3.88
44.625	3.87
44.675	3.87
44.725	3.86
44.825	3.85
44.875	3.85
44.925	3.84
44.975	3.84
45.025	3.83
45.075	3.82
45.125	3.82
45.175	3.81
45.225	3.81
45.275	3.8
45.325	3.8
45.375	3.79
45.425	3.79
45.475	3.78
45.525	3.78
45.575	3.77
45.675	3.76
45.825	3.75
45.875	3.75
45.925	3.74
45.975	3.74
46.025	3.73
46.075	3.73
46.125	3.72
46.175	3.72
46.225	3.71
46.275	3.71
46.375	3.7
46.475	3.69
46.525	3.68
46.575	3.68
46.675	3.67
46.725	3.66
46.775	3.66
46.825	3.65
46.875	3.65
46.925	3.65
47.025	3.64
47.075	3.63
47.125	3.63
47.175	3.62
47.225	3.62
47.275	3.61
47.325	3.61
47.425	3.6
47.475	3.6
47.525	3.59
47.575	3.59
47.625	3.58
47.675	3.58
47.725	3.57
47.775	3.57
47.825	3.56
47.875	3.56
47.975	3.55
48.025	3.55
48.075	3.54
48.125	3.54
48.175	3.53
48.225	3.53
48.275	3.53
48.325	3.52
48.375	3.52
48.425	3.51
48.475	3.51
48.525	3.5
48.575	3.5
48.625	3.5
48.675	3.49
48.725	3.49
48.775	3.48
48.825	3.48
48.875	3.47
48.975	3.47
49.025	3.46
49.075	3.46
49.125	3.45
49.175	3.45
49.225	3.45
49.275	3.44
49.325	3.44
49.375	3.43
49.425	3.43
49.475	3.43
49.525	3.42
49.625	3.41
49.675	3.41
49.725	3.41
49.775	3.4
49.825	3.4
49.875	3.39
49.925	3.39
50.025	3.38
50.075	3.38
50.125	3.37
50.175	3.37
50.275	3.36
50.325	3.36
50.375	3.35
50.425	3.35
50.525	3.34
50.575	3.34
50.625	3.34
50.725	3.33
50.775	3.32
50.825	3.32
50.875	3.32
50.925	3.31
50.975	3.31
51.025	3.31
51.125	3.3
51.175	3.29
51.225	3.29
51.275	3.29
51.325	3.28
51.375	3.28
51.425	3.28
51.475	3.27
51.525	3.27
51.575	3.26
51.625	3.26
51.675	3.26
51.725	3.25
51.775	3.25
51.825	3.25
51.875	3.24
51.925	3.24
51.975	3.24
52.025	3.23
52.125	3.22
52.175	3.22
52.275	3.21
52.325	3.21
52.425	3.2
52.525	3.2
52.575	3.19
52.625	3.19
52.675	3.19
52.725	3.18
52.775	3.18
52.875	3.17
52.925	3.17
52.975	3.17
53.025	3.16
53.075	3.16
53.125	3.16
53.175	3.15
53.225	3.15
53.275	3.15
53.325	3.14
53.375	3.14
53.425	3.14
53.475	3.13
53.525	3.13
53.575	3.13
53.625	3.12
53.675	3.12
53.725	3.12
53.775	3.11
53.825	3.11
53.975	3.1
54.025	3.1
54.075	3.09
54.225	3.08
54.275	3.08
54.325	3.08
54.375	3.07
54.425	3.07
54.525	3.06
54.575	3.06
54.625	3.06
54.675	3.05
54.725	3.05
54.775	3.05
54.825	3.05
54.925	3.04
54.975	3.04
55.075	3.03
55.175	3.02
55.225	3.02
55.275	3.02
55.375	3.01
55.425	3.01
55.525	3.0
55.575	3.0
55.625	3.0
55.675	2.99
55.725	2.99
55.825	2.98
55.925	2.98
55.975	2.97
56.025	2.97
56.175	2.96
56.225	2.96
56.275	2.96
56.325	2.95
56.375	2.95
56.425	2.95
56.475	2.95
56.525	2.94
56.575	2.94
56.625	2.94
56.675	2.93
56.725	2.93
56.875	2.92
56.925	2.92
56.975	2.92
57.075	2.91
57.125	2.91
57.175	2.91
57.225	2.9
57.275	2.9
57.325	2.9
57.425	2.89
57.475	2.89
57.525	2.89
57.575	2.88
57.625	2.88
57.675	2.88
57.725	2.87
57.775	2.87
57.825	2.87
57.875	2.87
57.925	2.86
57.975	2.86
58.125	2.85
58.175	2.85
58.225	2.85
58.475	2.83
58.575	2.83
58.625	2.83
58.725	2.82
58.775	2.82
58.825	2.81
58.875	2.81
58.925	2.81
59.025	2.8
59.175	2.8
59.225	2.79
59.275	2.79
59.325	2.79
59.375	2.79
59.425	2.78
59.575	2.78
59.625	2.77
59.675	2.77
59.875	2.76
59.975	2.76
60.025	2.75
60.225	2.74
60.275	2.74
60.425	2.73
60.525	2.73
60.625	2.72
60.825	2.71
60.925	2.71
61.025	2.7
61.125	2.7
61.225	2.69
61.275	2.69
61.475	2.68
61.525	2.68
61.625	2.68
61.675	2.67
61.725	2.67
61.775	2.67
61.975	2.66
62.025	2.66
62.175	2.65
62.275	2.64
62.375	2.64
62.525	2.63
62.775	2.62
62.875	2.62
63.025	2.61
63.125	2.61
63.375	2.6
63.425	2.59
63.475	2.59
63.625	2.58
63.675	2.58
63.925	2.57
64.325	2.55
64.375	2.55
64.425	2.55
64.725	2.54
64.825	2.53
64.875	2.53
65.275	2.51
65.425	2.51
65.475	2.51
65.575	2.5
65.675	2.5
65.725	2.5
65.775	2.49
65.825	2.49
66.025	2.48
66.175	2.48
66.225	2.48
66.325	2.47
66.375	2.47
66.875	2.45
67.075	2.44
67.125	2.44
67.225	2.44
67.275	2.43
67.325	2.43
67.375	2.43
67.425	2.43
67.475	2.43
67.625	2.42
67.875	2.41
68.075	2.4
68.225	2.4
68.325	2.4
68.375	2.39
68.525	2.39
68.775	2.38
68.925	2.37
69.125	2.37
69.175	2.36
69.375	2.36
69.475	2.35
69.625	2.35
69.675	2.35
69.725	2.34
69.775	2.34
69.825	2.34
69.925	2.34
69.975	2.34
70.025	2.33
70.175	2.33
70.475	2.32
70.625	2.31
70.875	2.31
70.925	2.3
71.025	2.3
71.125	2.3
71.175	2.3
71.225	2.29
71.575	2.28
71.775	2.28
72.075	2.27
72.125	2.26
72.425	2.25
72.475	2.25
72.525	2.25
72.725	2.24
72.825	2.24
72.975	2.24
73.325	2.23
73.375	2.22
73.775	2.21
74.025	2.2
74.125	2.2
74.425	2.19
74.575	2.19
74.625	2.19
75.425	2.16
75.525	2.16
75.575	2.16
75.675	2.15
75.825	2.15
75.975	2.15
76.025	2.14
76.075	2.14
76.275	2.14
76.325	2.14
76.425	2.13
76.525	2.13
76.675	2.13
76.725	2.13
76.775	2.12
77.025	2.12
77.125	2.11
77.475	2.1
77.525	2.1
77.725	2.1
77.775	2.1
77.875	2.09
78.525	2.08
78.725	2.07
79.025	2.06
79.125	2.06
79.175	2.06
79.225	2.06
79.325	2.06
79.425	2.05
79.675	2.05
80.175	2.03
80.275	2.03
80.375	2.03
80.725	2.02
81.475	2.0
81.775	1.99
82.075	1.99
82.475	1.98
82.675	1.97
82.975	1.97
83.025	1.96
83.225	1.96
83.325	1.96
83.375	1.96
83.725	1.95
84.025	1.94
84.175	1.94
84.325	1.94
84.425	1.93
84.775	1.93
85.225	1.92
85.725	1.9
85.775	1.9
85.925	1.9
86.025	1.9
86.125	1.9
86.175	1.89
86.225	1.89
86.325	1.89
86.475	1.89
87.125	1.88
88.075	1.86
88.225	1.85
88.425	1.85
89.475	1.83
89.525	1.83
89.775	1.82
89.825	1.82
89.975	1.82
90.175	1.81
90.275	1.81
91.125	1.8
91.225	1.8
91.575	1.79
91.925	1.78
92.225	1.78
92.375	1.77
92.975	1.76
93.125	1.76
93.725	1.75
94.375	1.74
94.475	1.74
94.775	1.73
95.175	1.73
95.775	1.72
95.875	1.71
96.075	1.71
97.575	1.69
97.875	1.68
98.375	1.68
98.725	1.67
99.075	1.66
99.575	1.66
99.825	1.65
100.275	1.65
101.375	1.63
103.025	1.61
103.175	1.61
103.675	1.6
106.525	1.56
106.925	1.56
107.375	1.55
107.425	1.55
108.175	1.54
108.525	1.54
110.575	1.52
110.625	1.51
110.775	1.51
110.975	1.51
112.175	1.5
112.325	1.5
113.125	1.49
113.875	1.48
114.025	1.48
116.175	1.46
116.525	1.45
118.025	1.44
118.775	1.43
122.075	1.4
122.525	1.4
123.225	1.39
123.325	1.39
125.025	1.38
130.875	1.33
136.025	1.3
139.075	1.28
140.075	1.28
141.875	1.26
143.675	1.26
144.075	1.25
221.075	1.05
